"Time (s)","X (rad/s)","Y (rad/s)","Z (rad/s)"
1.729766667E-2,9.386773109E-1,-1.372645050E-1,-3.406555057E-1
2.726266667E-2,7.486533523E-1,-3.664665520E-1,-4.505162239E-1
3.722666667E-2,3.834998906E-1,-5.532295704E-1,-6.771593094E-1
4.719166667E-2,-5.947325751E-2,-7.583858967E-1,-8.731410503E-1
5.715566667E-2,-5.147501826E-1,-8.778886199E-1,-9.912134409E-1
6.712066667E-2,-9.126600027E-1,-9.050214291E-1,-1.061018825E0
7.708466667E-2,-1.185249567E0,-9.163527489E-1,-1.073231697E0
8.704866667E-2,-1.286271572E0,-8.566268682E-1,-9.804914594E-1
9.701366667E-2,-1.264173865E0,-7.618634701E-1,-8.147720098E-1
1.069776667E-1,-1.110121489E0,-7.139212489E-1,-6.058217287E-1
1.169426667E-1,-9.423295259E-1,-7.643803954E-1,-3.660288155E-1
1.269066667E-1,-7.601749301E-1,-7.849599719E-1,-1.902921498E-1
1.368716667E-1,-4.986228347E-1,-7.784747481E-1,-1.387744695E-1
1.468356667E-1,-2.465855330E-1,-9.167063832E-1,-1.233939081E-1
1.568006667E-1,-7.105393708E-2,-1.065222383E0,-1.139889136E-1
1.667646667E-1,3.499232978E-2,-1.015216470E0,-1.600962281E-1
1.767296667E-1,1.104659215E-1,-8.317644596E-1,-2.275422662E-1
1.866936667E-1,1.545968950E-1,-6.603221297E-1,-2.523192465E-1
1.966576667E-1,1.595040560E-1,-5.185069442E-1,-2.112224698E-1
2.066226667E-1,1.735519618E-1,-3.466539383E-1,-1.185670942E-1
2.165866667E-1,2.100458294E-1,-1.590726525E-1,3.481441364E-2
2.265516667E-1,9.336742014E-2,-3.158419579E-2,2.175440043E-1
2.365156667E-1,9.234172851E-2,1.584194005E-1,3.498363793E-1
2.464806667E-1,1.676234305E-1,3.654889464E-1,4.306350946E-1
2.564446667E-1,2.635117173E-1,5.478101373E-1,4.824272394E-1
2.664086667E-1,2.319654971E-1,5.981047153E-1,5.325993299E-1
2.763736667E-1,1.442520618E-1,5.937799215E-1,5.616773963E-1
2.863376667E-1,5.740530416E-2,5.706972480E-1,5.651267171E-1
2.963026667E-1,5.793082993E-3,4.673600793E-1,5.826318264E-1
3.062666667E-1,-3.700553905E-3,2.404065430E-1,6.490689516E-1
3.162316667E-1,4.479039460E-3,-1.685421541E-2,7.680251002E-1
3.261956667E-1,-8.716992289E-2,-3.969109058E-2,9.473802447E-1
3.361606667E-1,-4.006305635E-1,1.238852441E-1,1.130759239E0
3.461246667E-1,-7.744134665E-1,2.084850818E-1,1.297612190E0
3.560896667E-1,-1.011093378E0,1.762363464E-1,1.430769324E0
3.660536667E-1,-1.251881719E0,1.220370233E-1,1.446833611E0
3.760176667E-1,-1.433543563E0,-1.300664395E-1,1.387786984E0
3.859826667E-1,-9.738956094E-1,3.513830304E-1,5.112450719E-1
3.959466667E-1,-3.919070661E-1,2.267071754E-1,-4.327775538E-1
4.059116667E-1,-1.273624897E-1,1.959023923E-1,-7.366176248E-1
4.158756667E-1,-1.418593340E-2,6.942268014E-1,-5.135644078E-1
4.258406667E-1,1.527455300E-1,8.552604318E-1,1.130582094E-1
4.358046667E-1,5.415628478E-2,8.613399267E-1,8.492454290E-1
4.457696667E-1,-2.904911339E-1,1.068101883E0,1.346457720E0
4.557336667E-1,-6.773049831E-1,1.270042300E0,1.510132551E0
4.656976667E-1,-9.713912010E-1,1.448832631E0,1.399142027E0
4.756626667E-1,-1.108417034E0,1.716377258E0,1.165780306E0
4.856266667E-1,-1.162818193E0,1.991487861E0,1.011119366E0
4.955916667E-1,-1.282543778E0,2.113954544E0,9.709258676E-1
5.055556667E-1,-1.461486101E0,2.128077984E0,9.866915345E-1
5.155206667E-1,-1.562034249E0,1.976084113E0,9.926658273E-1
5.254846667E-1,-1.515188932E0,1.635873318E0,9.986222386E-1
5.354496667E-1,-1.332828403E0,1.004631877E0,1.060051203E0
5.454136667E-1,-9.349675179E-1,3.101766706E-1,1.195246577E0
5.553776667E-1,-3.291123509E-1,-4.144068062E-1,1.360175252E0
5.653426667E-1,2.514413297E-1,-1.025920510E0,1.393544912E0
5.753066667E-1,6.769663095E-1,-1.259747982E0,1.224688888E0
5.852716667E-1,8.717328906E-1,-1.242243648E0,9.022313356E-1
5.952356667E-1,9.534319043E-1,-1.650297165E0,5.376551151E-1
6.052006667E-1,1.056825399E0,-2.032852888E0,3.143048584E-1
6.151646667E-1,1.145205021E0,-2.103675842E0,2.688360214E-1
6.251296667E-1,1.130748510E0,-1.998066545E0,2.841995358E-1
6.350936667E-1,1.087985277E0,-1.445473671E0,3.424834311E-1
6.450576667E-1,1.072010636E0,-7.383112311E-1,4.937573671E-1
6.550226667E-1,1.012409210E0,-1.582224220E-1,6.951677203E-1
6.649866667E-1,9.785562158E-1,2.803913951E-1,8.607878685E-1
6.749516667E-1,9.273128510E-1,5.324254036E-1,9.831150770E-1
6.849156667E-1,8.528569937E-1,6.519169211E-1,1.050904274E0
6.948806667E-1,7.565827370E-1,6.118437052E-1,1.068975806E0
7.048446667E-1,6.510280967E-1,4.734984040E-1,1.073745251E0
7.148096667E-1,5.392988324E-1,2.980229557E-1,1.068762898E0
7.247736667E-1,4.102268815E-1,1.449860334E-1,1.043570876E0
7.347386667E-1,2.985093892E-1,1.953433640E-2,9.707168341E-1
7.447026667E-1,1.946751475E-1,-7.526042406E-3,8.425700665E-1
7.546666667E-1,9.428692609E-2,1.885428652E-2,7.098609209E-1
7.646316667E-1,6.038754806E-2,6.237912923E-2,5.674973726E-1
7.745956667E-1,3.993266821E-2,1.450225264E-1,4.565720856E-1
7.845606667E-1,1.487578731E-2,2.105496079E-1,3.497657478E-1
7.945246667E-1,-4.658083897E-3,2.354553342E-1,2.610358596E-1
8.044896667E-1,-5.368448049E-2,2.267244309E-1,2.003578544E-1
8.144536667E-1,-1.399840862E-1,1.729375124E-1,1.775015742E-1
8.244186667E-1,-2.154192030E-1,1.146379858E-1,1.769364476E-1
8.343826667E-1,-2.597140670E-1,4.397458583E-2,2.159024626E-1
8.443466667E-1,-2.686756253E-1,-3.211379051E-2,2.924917936E-1
8.543116667E-1,-2.650320530E-1,-6.766338646E-2,3.824600875E-1
8.642756667E-1,-2.657657564E-1,-4.456206411E-2,4.704203010E-1
8.742406667E-1,-2.864006758E-1,-3.647404537E-2,5.297819376E-1
8.842046667E-1,-3.329263628E-1,-5.850184709E-2,5.483143330E-1
8.941696667E-1,-4.278294146E-1,-1.291249245E-1,5.349830389E-1
9.041336667E-1,-5.430044532E-1,-2.451050580E-1,5.187484026E-1
9.140984583E-1,-6.421064138E-1,-3.668148518E-1,4.939875603E-1
9.240624583E-1,-6.667504907E-1,-4.746457040E-1,4.416702986E-1
9.340274583E-1,-6.319570541E-1,-5.339926481E-1,3.702689111E-1
9.439914583E-1,-5.746181607E-1,-5.257240534E-1,3.025487065E-1
9.539554583E-1,-5.164964795E-1,-4.442285001E-1,2.530930042E-1
9.639204583E-1,-4.704565406E-1,-2.941023707E-1,2.137977928E-1
9.738844583E-1,-4.271544516E-1,-1.513485909E-1,1.669184864E-1
9.838494583E-1,-3.944481611E-1,5.094549619E-3,1.115327254E-1
9.938134583E-1,-3.115505874E-1,1.913647801E-1,6.386739761E-2
1.003778458E0,-1.856310070E-1,3.457700610E-1,1.896943524E-2
1.013742458E0,-8.079567552E-2,4.348546863E-1,3.867325839E-3
1.023707458E0,-6.570167840E-2,4.779856503E-1,1.994935796E-2
1.033671458E0,-1.479392201E-1,4.972814918E-1,6.536385417E-2
1.043635458E0,-3.242809772E-1,5.331042409E-1,1.218012944E-1
1.053600458E0,-5.589188933E-1,6.173910499E-1,1.414222419E-1
1.063564458E0,-7.952869534E-1,7.185051441E-1,1.264944226E-1
1.073529458E0,-9.517756701E-1,7.654539943E-1,1.048538238E-1
1.083493458E0,-9.980723262E-1,7.331210971E-1,5.265853554E-2
1.093458458E0,-9.397315383E-1,6.148878932E-1,-2.105436288E-2
1.103422458E0,-7.779623270E-1,3.738526702E-1,-1.160743535E-1
1.113387458E0,-5.417959690E-1,7.054376602E-2,-2.454400957E-1
1.123351458E0,-2.974751890E-1,-1.742697209E-1,-3.589999378E-1
1.133316458E0,-7.015454024E-2,-2.865322232E-1,-4.598768950E-1
1.143280458E0,1.248133481E-1,-3.121108115E-1,-5.558889508E-1
1.153244458E0,2.584018111E-1,-2.463273108E-1,-6.507211924E-1
1.163209458E0,3.377134204E-1,-1.281929314E-1,-7.330073118E-1
1.173173458E0,3.373387158E-1,2.900571562E-2,-7.882376909E-1
1.183138458E0,2.420571893E-1,2.374888808E-1,-8.211432099E-1
1.193102458E0,5.877460912E-2,4.461580813E-1,-8.376259208E-1
1.203067458E0,-1.626826823E-1,6.035951376E-1,-8.433741331E-1
1.213031458E0,-3.635893762E-1,6.760655046E-1,-8.462007642E-1
1.222996458E0,-4.978417158E-1,6.726633310E-1,-8.423554301E-1
1.232960458E0,-5.782014132E-1,6.123862267E-1,-8.442611098E-1
1.242925458E0,-6.068186760E-1,5.648948550E-1,-8.428909183E-1
1.252889458E0,-5.967025161E-1,4.845117629E-1,-8.444883823E-1
1.262853458E0,-4.178339243E-1,5.550820380E-2,-8.000460863E-1
1.272818458E0,-1.588549465E-1,-3.095152080E-1,-8.424465060E-1
1.282782458E0,1.945399446E-3,-4.508361220E-1,-8.974708915E-1
1.292747458E0,3.594436944E-1,-4.362713993E-1,-8.002889752E-1
1.302711458E0,5.686200857E-1,-1.378442198E-1,-6.971178651E-1
1.312676458E0,6.299962401E-1,1.250975281E-1,-6.460455060E-1
1.322640458E0,5.176334381E-1,2.605594993E-1,-5.803639293E-1
1.332605458E0,2.764117718E-1,3.333040476E-1,-5.608747005E-1
1.342569458E0,-8.953081816E-2,4.117740989E-1,-5.168371797E-1
1.352533458E0,-5.469109416E-1,4.001537263E-1,-4.849317074E-1
1.362498458E0,-7.952898741E-1,1.875833869E-1,-4.642671943E-1
1.372462458E0,-8.665146828E-1,6.163461134E-3,-4.754582047E-1
1.382427458E0,-8.197876811E-1,-1.771906465E-1,-5.171177387E-1
1.392391458E0,-1.838507354E-1,-7.188168168E-1,-5.728662014E-1
1.402356458E0,1.407537162E-1,-3.462893069E-1,-4.274061918E-1
1.412320458E0,2.440405786E-1,-1.089698523E-1,-3.756862581E-1
1.422285458E0,2.917183638E-1,9.443333000E-2,-2.312150747E-1
1.432249458E0,2.859051228E-1,1.634463221E-1,-1.670368463E-1
1.442214458E0,2.765457332E-1,1.913983226E-1,-1.480772644E-1
1.452178458E0,2.834126949E-1,1.701701880E-1,-9.728274494E-2
1.462142458E0,2.481777519E-1,1.687446088E-1,-1.390928589E-2
1.472107458E0,2.377856523E-1,1.222007647E-1,-1.018564776E-1
1.482071458E0,2.023693323E-1,1.911550611E-1,-1.121610403E-1
1.492036458E0,1.055565402E-1,1.913518310E-1,-7.254312187E-2
1.502000458E0,-4.312348366E-2,1.694627702E-1,-5.068043247E-2
1.511965458E0,-1.517575085E-1,1.277102232E-1,-3.339045867E-2
1.521929458E0,-1.449193209E-1,5.907550454E-2,-3.320297226E-2
1.531894458E0,-3.473602608E-2,1.020532474E-1,-7.116460055E-2
1.541858458E0,9.124161303E-2,3.345112801E-1,-1.340154707E-1
1.551823458E0,1.567583978E-1,6.216832399E-1,-1.882382780E-1
1.561787458E0,1.719338894E-1,8.365236521E-1,-2.237294316E-1
1.571751458E0,4.780820757E-2,1.104098678E0,-2.123073936E-1
1.581716458E0,3.495073318E-2,1.020363331E0,-1.430034190E-1
1.591680458E0,-2.921262942E-2,1.028660178E0,-7.080613822E-2
1.601645458E0,-1.169131845E-1,1.054094911E0,-3.398687392E-2
1.611609458E0,-2.447695881E-1,1.000194430E0,-2.393139340E-2
1.621574458E0,-4.401688874E-1,8.433040977E-1,-2.879299410E-2
1.631538458E0,-6.438031197E-1,5.131833553E-1,-3.900112584E-2
1.641503458E0,-8.411577344E-1,1.605997086E-1,-6.049443409E-2
1.651467458E0,-9.934327006E-1,-8.058370650E-2,-9.056236595E-2
1.661431458E0,-9.896320701E-1,-2.197815478E-1,-1.223732904E-1
1.671396458E0,-8.369742632E-1,-2.919274569E-1,-1.526766568E-1
1.681360458E0,-5.781557560E-1,-2.261260748E-1,-1.641722023E-1
1.691325458E0,-2.848967314E-1,-3.110546246E-2,-1.261901855E-1
1.701289458E0,1.654940844E-2,1.070801094E-1,-1.383647975E-2
1.711254458E0,2.336616516E-1,6.764224172E-2,1.068604589E-1
1.721218458E0,3.233726025E-1,-1.040352434E-1,1.802017838E-1
1.731183458E0,3.082281649E-1,-1.938493848E-1,2.562912107E-1
1.741147458E0,2.401151359E-1,-2.345145345E-1,3.381655812E-1
1.751112458E0,1.298232228E-1,-2.784684002E-1,3.905009031E-1
1.761076458E0,-2.332689473E-3,-3.004890084E-1,4.389927983E-1
1.771040458E0,-1.335005760E-1,-2.525877655E-1,4.694981277E-1
1.781005458E0,-2.584084272E-1,-1.776448190E-1,4.983425736E-1
1.790969458E0,-3.558490872E-1,-1.496268511E-1,5.363825560E-1
1.800934458E0,-4.216829836E-1,-1.331333667E-1,5.584074259E-1
1.810898458E0,-4.420310259E-1,-1.272220463E-1,5.796961784E-1
1.820863458E0,-4.085151553E-1,-1.752814502E-1,5.811440945E-1
1.830827458E0,-3.435729146E-1,-2.084705979E-1,5.640994310E-1
1.840792458E0,-2.361705452E-1,-2.180001736E-1,5.284178853E-1
1.850756458E0,-9.008850902E-2,-2.438561916E-1,4.884655476E-1
1.860721458E0,7.592629641E-2,-2.579818666E-1,4.380782843E-1
1.870685458E0,2.746600509E-1,-1.272868812E-1,3.981938064E-1
1.880649458E0,5.723524690E-1,2.700349092E-1,3.347152174E-1
1.890614458E0,7.551695704E-1,5.182709098E-1,3.320338130E-1
1.900578458E0,8.394082785E-1,5.873312354E-1,3.255708516E-1
1.910543208E0,8.297669291E-1,5.523223281E-1,3.289463818E-1
1.920507208E0,7.654494643E-1,4.721164703E-1,3.333147466E-1
1.930472208E0,6.735748053E-1,3.524503112E-1,3.394800127E-1
1.940436208E0,5.689173937E-1,2.344751954E-1,3.431085646E-1
1.950401208E0,4.972082376E-1,1.586012989E-1,3.506166041E-1
1.960365208E0,4.664111733E-1,9.454908222E-2,3.617691100E-1
1.970329208E0,4.118578136E-1,8.831258863E-2,3.797992766E-1
1.980294208E0,3.518754542E-1,1.111294851E-1,3.842683434E-1
1.990258208E0,2.858836353E-1,1.283828169E-1,3.975613415E-1
2.000223208E0,1.991021037E-1,8.420043439E-2,4.277929962E-1
2.010187208E0,9.610144794E-2,1.114139426E-2,4.565392137E-1
2.020152208E0,1.784552820E-2,-1.637145691E-2,4.880350828E-1
2.030116208E0,3.928538878E-3,-2.501892392E-3,4.966798127E-1
2.040081208E0,2.295389399E-2,6.810835749E-2,4.897883534E-1
2.050045208E0,5.089847744E-2,1.726698875E-1,4.915089607E-1
2.060010208E0,7.886193693E-2,2.557514608E-1,5.019666553E-1
2.069974208E0,3.977667540E-2,2.908923030E-1,5.039392114E-1
2.079938208E0,-5.111568049E-2,2.477376312E-1,4.696158469E-1
2.089903208E0,-1.408356279E-1,1.686890870E-1,4.120658338E-1
2.099867208E0,-2.154225111E-1,1.465156078E-1,3.216371536E-1
2.109832208E0,-2.113210559E-1,1.953849792E-1,2.080924660E-1
2.119796208E0,-2.318718731E-1,3.948450983E-1,1.024424732E-1
2.129761208E0,-1.952894628E-1,3.032502532E-1,5.805658549E-2
2.139725208E0,-7.993490249E-2,1.798910499E-1,6.560690701E-2
2.149690208E0,4.615008458E-2,5.439781770E-2,3.330205381E-2
2.159654208E0,2.068609446E-1,4.509672895E-2,3.181700828E-3
2.169619208E0,3.552307189E-1,7.887043059E-3,-2.111831307E-2
2.179583208E0,4.325041771E-1,-4.027063027E-2,-4.145447537E-2
2.189547208E0,4.398154318E-1,-8.000377566E-2,-8.017472923E-2
2.199512208E0,3.919235170E-1,-1.357453465E-1,-1.590517014E-1
2.209476208E0,3.153372705E-1,-2.325569391E-1,-2.791453302E-1
2.219441208E0,2.379604578E-1,-2.714039385E-1,-4.044012427E-1
2.229405208E0,1.564710885E-1,-2.328470945E-1,-5.439216495E-1
2.239370208E0,-3.999542445E-3,-1.645993441E-1,-7.019131780E-1
2.249334208E0,-3.218449950E-1,-1.254209280E-1,-8.454484940E-1
2.259299208E0,-7.186703682E-1,-1.302183568E-1,-8.507606983E-1
2.269263208E0,-9.652165174E-1,-1.949243993E-1,-7.630746961E-1
2.279227208E0,-9.084754586E-1,-3.132004440E-1,-6.669939756E-1
2.289192208E0,-5.782037973E-1,-3.080903590E-1,-5.376974940E-1
2.299156208E0,-1.568118036E-1,-2.377943695E-1,-4.533616006E-1
2.309121208E0,2.073081732E-1,-1.739403754E-1,-3.852132261E-1
2.319085208E0,4.903678298E-1,-1.203943267E-1,-3.247943521E-1
2.329050208E0,6.964156032E-1,-3.343526646E-2,-2.761261165E-1
2.339014208E0,8.110870123E-1,5.534387380E-2,-2.821727991E-1
2.348979208E0,8.266491294E-1,7.501273602E-2,-3.004755378E-1
2.358943208E0,7.519400120E-1,6.875856966E-2,-3.327817917E-1
2.368908208E0,6.141868234E-1,2.822190523E-2,-4.439424574E-1
2.378872208E0,4.214687943E-1,-5.545860901E-2,-5.733134747E-1
2.388836208E0,2.282343507E-1,-1.755027026E-1,-6.837298274E-1
2.398801208E0,8.039348572E-2,-2.599102557E-1,-7.746733427E-1
2.408765208E0,3.296012059E-3,-2.851074636E-1,-8.424232006E-1
2.418730208E0,-1.677410305E-2,-3.005077243E-1,-8.678745031E-1
2.428694208E0,2.976438962E-3,-3.184950352E-1,-8.512588739E-1
2.438659208E0,5.789641291E-2,-2.944844961E-1,-8.120781779E-1
2.448623208E0,1.251598299E-1,-2.238904387E-1,-7.615965605E-1
2.458588208E0,1.739377528E-1,-1.234842092E-1,-7.070822120E-1
2.468552208E0,2.058927715E-1,-3.928142041E-2,-6.668071151E-1
2.478517208E0,2.031888515E-1,4.301025346E-2,-6.356196404E-1
2.488481208E0,1.767055392E-1,8.803848177E-2,-5.931375027E-1
2.498445208E0,1.892122775E-1,1.056014970E-1,-5.767106414E-1
2.508410208E0,2.077976465E-1,1.644941121E-1,-5.479843020E-1
2.518374208E0,2.431218177E-1,2.156467736E-1,-5.106270313E-1
2.528339208E0,2.862955332E-1,2.115011811E-1,-4.616090655E-1
2.538303208E0,3.122054040E-1,1.785930246E-1,-4.023819566E-1
2.548268208E0,3.455593884E-1,1.476995349E-1,-3.424041569E-1
2.558232208E0,3.909505904E-1,1.638348252E-1,-2.714815140E-1
2.568197208E0,4.032538831E-1,1.642411649E-1,-2.021946609E-1
2.578161208E0,3.823821545E-1,1.337817907E-1,-1.238143742E-1
2.588126208E0,3.432906568E-1,6.824119389E-2,-5.144857988E-2
2.598090208E0,2.889411151E-1,1.429593842E-2,1.036977954E-2
2.608054208E0,2.274064720E-1,-4.326036945E-2,5.941945314E-2
2.618019208E0,1.692169309E-1,-8.760013431E-2,1.000744700E-1
2.627983208E0,1.150249019E-1,-1.152134687E-1,1.319819987E-1
2.637948208E0,1.011077538E-1,-1.756147593E-1,1.545735896E-1
2.647912208E0,1.455965936E-1,-2.085737437E-1,1.785620153E-1
2.657877208E0,2.322854102E-1,-1.841086149E-1,1.926967353E-1
2.667841208E0,3.142945766E-1,-1.230452508E-1,1.985983700E-1
2.677806208E0,3.420148790E-1,-1.082761586E-1,1.892008781E-1
2.687770208E0,3.067077994E-1,-1.402336061E-1,1.778706610E-1
2.697735208E0,2.560211718E-1,-1.530628502E-1,1.712897271E-1
2.707699208E0,2.047875077E-1,-9.583761543E-2,1.706053764E-1
2.717663208E0,1.639005244E-1,-2.337060310E-2,1.763703227E-1
2.727628208E0,1.155338213E-1,5.126311257E-2,1.720950902E-1
2.737592208E0,2.992730401E-2,1.071050689E-1,1.545938551E-1
2.747557208E0,-1.105328426E-1,1.368250996E-1,1.563954204E-1
2.757521208E0,-2.870170474E-1,1.639182419E-1,1.750383377E-1
2.767486208E0,-4.816002250E-1,1.981197149E-1,1.944339275E-1
2.777450208E0,-6.848830581E-1,1.863943487E-1,2.060935050E-1
2.787415208E0,-8.894637227E-1,1.119148880E-1,2.067018300E-1
2.797379208E0,-1.069608688E0,-2.932292223E-2,2.044882178E-1
2.807344208E0,-1.183382392E0,-1.833105236E-1,2.088936567E-1
2.817308208E0,-1.184547544E0,-3.061591983E-1,2.249432057E-1
2.827272208E0,-1.047518253E0,-3.801825047E-1,2.596682906E-1
2.837237208E0,-7.959640026E-1,-3.850773871E-1,3.125642538E-1
2.847201208E0,-4.796181321E-1,-3.225430846E-1,3.745786250E-1
2.857166208E0,-1.427168101E-1,-2.707318068E-1,4.307931662E-1
2.867130208E0,1.680115759E-1,-1.170181781E-1,5.042479634E-1
2.877095208E0,3.852450848E-1,-2.955525648E-3,5.848860741E-1
2.887059208E0,5.120956898E-1,-2.037527971E-2,6.676360965E-1
2.897024208E0,5.128842592E-1,4.397282004E-2,7.184113860E-1
2.906988208E0,4.240379632E-1,-7.788336370E-3,7.230831981E-1
2.916953208E0,3.125077188E-1,-2.344292961E-2,7.382709384E-1
2.926917208E0,1.246310696E-1,-1.264628582E-2,7.076666951E-1
2.936881208E0,-4.138054326E-2,-9.377256036E-2,6.867867112E-1
2.946846208E0,-2.167463005E-1,-9.531364590E-2,6.888856888E-1
2.956810208E0,-4.072999954E-1,-1.765155643E-1,6.801536679E-1
2.966775208E0,-5.423129201E-1,-2.788113356E-1,7.046948671E-1
2.976739208E0,-6.333562732E-1,-3.163001239E-1,6.996310949E-1
2.986704208E0,-6.226530075E-1,-3.364138901E-1,6.884040833E-1
2.996668208E0,-5.727165937E-1,-3.523052335E-1,6.761537790E-1
3.006633208E0,-4.895993769E-1,-3.787605166E-1,6.464279890E-1
3.016597208E0,-3.700112104E-1,-4.801396132E-1,6.103189588E-1
3.026561208E0,-2.362624258E-1,-4.390806258E-1,6.002084613E-1
3.036526208E0,-7.453637570E-2,-3.828562200E-1,5.683099031E-1
3.046490208E0,9.206767380E-2,-2.481508106E-1,5.381217003E-1
3.056455208E0,2.040629089E-1,-1.774715781E-1,5.081409216E-1
3.066419208E0,2.899869680E-1,-1.007350534E-1,4.873574674E-1
3.076384208E0,3.131822944E-1,-2.116939053E-2,4.760677814E-1
3.086348208E0,3.307957053E-1,6.391608156E-3,4.687592983E-1
3.096313208E0,3.269764483E-1,2.068878710E-2,4.434909821E-1
3.106277208E0,2.855753601E-1,6.418629549E-3,4.231043160E-1
3.116242208E0,2.124087363E-1,-3.853100166E-2,4.023764133E-1
3.126206208E0,1.200811118E-1,-1.250295788E-1,3.788003027E-1
3.136171208E0,1.824342646E-2,-2.281495780E-1,3.623512983E-1
3.146135208E0,-4.790565744E-2,-3.072442114E-1,3.510245383E-1
3.156099208E0,-7.359983772E-2,-3.441697359E-1,3.564917445E-1
3.166064208E0,-1.287167519E-1,-3.733179271E-1,3.396319449E-1
3.176028208E0,-1.334206909E-1,-3.957723677E-1,3.388849199E-1
3.185993208E0,-1.120616794E-1,-3.232696056E-1,3.414809406E-1
3.195957208E0,-1.083670706E-1,-1.715535671E-1,3.214670420E-1
3.205922208E0,-1.271193027E-1,-5.478023365E-2,3.073999286E-1
3.215886208E0,-1.683990955E-1,1.412213314E-2,2.753530443E-1
3.225851208E0,-2.474607080E-1,5.847344920E-2,2.268175036E-1
3.235815208E0,-3.606328368E-1,5.405846238E-2,1.772302389E-1
3.245780208E0,-4.907298982E-1,-8.769148961E-3,1.273504347E-1
3.255744208E0,-6.286286116E-1,-1.102987006E-1,6.479491293E-2
3.265708208E0,-7.289661765E-1,-2.052001953E-1,7.330048364E-3
3.275673208E0,-7.379404902E-1,-2.562679052E-1,-5.165604129E-2
3.285637208E0,-6.507652402E-1,-2.633166313E-1,-1.090101972E-1
