"Time (s)","X (rad/s)","Y (rad/s)","Z (rad/s)"
1.874854167E-2,6.418620795E-2,-1.843937039E-1,5.167140812E-2
2.871354167E-2,-4.688172415E-2,-1.948002726E-1,6.186652184E-2
3.867954167E-2,-1.600682735E-1,-2.219437808E-1,7.507582754E-2
4.864454168E-2,-2.597879767E-1,-2.435236424E-1,9.100285918E-2
5.860908334E-2,-3.445632756E-1,-2.531234324E-1,1.043242365E-1
6.857508334E-2,-3.986733854E-1,-2.494922131E-1,1.095440313E-1
7.854008334E-2,-4.201296270E-1,-2.573320568E-1,1.129826680E-1
8.850508333E-2,-4.344209433E-1,-2.708100379E-1,1.081213355E-1
9.847108333E-2,-4.379145503E-1,-2.614397407E-1,1.055633873E-1
1.084360833E-1,-4.315498769E-1,-2.491585910E-1,9.122679383E-2
1.184020833E-1,-4.390217066E-1,-2.192067951E-1,7.325097919E-2
1.283670833E-1,-4.659297764E-1,-2.041660547E-1,7.974509150E-2
1.383320833E-1,-5.031732917E-1,-2.207475454E-1,9.053651243E-2
1.482980833E-1,-5.585848689E-1,-2.712323070E-1,1.125869527E-1
1.582630833E-1,-6.770918369E-1,-4.415123463E-1,1.567509770E-1
1.682280833E-1,-8.378090262E-1,-6.001368761E-1,1.983213127E-1
1.781940833E-1,-1.010281086E0,-7.824007273E-1,2.095750123E-1
1.881590833E-1,-1.127272129E0,-9.121560454E-1,2.110352218E-1
1.981250833E-1,-1.176828742E0,-1.035406470E0,2.447146475E-1
2.080900833E-1,-1.184726357E0,-1.180763602E0,2.734701335E-1
2.180550833E-1,-1.169636130E0,-1.317618608E0,3.068096638E-1
2.280210833E-1,-1.139768004E0,-1.436864376E0,3.858214021E-1
2.379860833E-1,-1.123361945E0,-1.467845678E0,4.481657743E-1
2.479510833E-1,-1.137193561E0,-1.500765324E0,4.944634736E-1
2.579170833E-1,-1.188215852E0,-1.496220589E0,5.071260333E-1
2.678820833E-1,-1.219655991E0,-1.418769240E0,5.154372454E-1
2.778480833E-1,-1.212604642E0,-1.400393724E0,5.150542259E-1
2.878130833E-1,-1.161774158E0,-1.396172881E0,5.036886334E-1
2.977780833E-1,-1.081341028E0,-1.462380528E0,5.143881440E-1
3.077440833E-1,-9.886786342E-1,-1.541241050E0,5.762307644E-1
3.177090833E-1,-9.023522735E-1,-1.584857464E0,6.303883195E-1
3.276740833E-1,-8.062686324E-1,-1.597100258E0,6.694962978E-1
3.376400833E-1,-7.145773768E-1,-1.605284214E0,7.091808915E-1
3.476050833E-1,-6.201148033E-1,-1.620427489E0,7.449748516E-1
3.575710833E-1,-5.483483672E-1,-1.625027537E0,7.714202404E-1
3.675360833E-1,-5.381796360E-1,-1.611453414E0,8.202162385E-1
3.775010833E-1,-5.873488188E-1,-1.616216779E0,8.805601001E-1
3.874670833E-1,-6.567332149E-1,-1.659402013E0,9.722516537E-1
3.974320833E-1,-7.494589686E-1,-1.660657763E0,1.093982220E0
4.073970833E-1,-8.830705881E-1,-1.689415812E0,1.232681513E0
4.173630833E-1,-1.058358073E0,-1.671501160E0,1.339259267E0
4.273280833E-1,-1.265382528E0,-1.599132061E0,1.351533413E0
4.372940833E-1,-1.367163181E0,-1.650767803E0,1.260682106E0
4.472590833E-1,-1.288273215E0,-1.503892064E0,1.152462482E0
4.572240833E-1,-1.105053663E0,-1.238289952E0,9.650099277E-1
4.671900833E-1,-9.146738648E-1,-1.152573705E0,8.186756372E-1
4.771550833E-1,-8.052409887E-1,-1.204471350E0,7.129198909E-1
4.871200833E-1,-7.275605798E-1,-1.315121174E0,6.318910718E-1
4.970860833E-1,-6.567745209E-1,-1.074093819E0,5.384072661E-1
5.070510833E-1,-6.459652781E-1,-7.979781032E-1,3.748276234E-1
5.170170833E-1,-7.075756192E-1,-5.005488396E-1,2.121669203E-1
5.269820833E-1,-7.790783048E-1,-2.047917694E-1,2.032771148E-2
5.369470833E-1,-7.996497154E-1,1.926306486E-1,-1.168854013E-1
5.469130833E-1,-8.103473783E-1,5.217446089E-1,-1.565792859E-1
5.568780833E-1,-8.250343204E-1,6.493372917E-1,-1.460557133E-1
5.668430833E-1,-8.168085814E-1,5.965427756E-1,-1.055753902E-1
5.768090833E-1,-8.222613931E-1,4.285577238E-1,-8.283844590E-2
5.867740833E-1,-8.854880333E-1,2.840916216E-1,-1.289731860E-1
5.967400833E-1,-1.047009706E0,2.799956203E-1,-2.151632160E-1
6.067050833E-1,-1.259510279E0,5.001487732E-1,-2.768473625E-1
6.166700833E-1,-1.453268290E0,8.991070390E-1,-3.080015481E-1
6.266360833E-1,-1.604490042E0,1.096583962E0,-7.847671956E-2
6.366010833E-1,-1.837268233E0,9.737443328E-1,3.722480536E-1
6.465660833E-1,-2.028195381E0,8.571971655E-1,7.518143058E-1
6.565320833E-1,-2.035362720E0,8.033925295E-1,6.313621998E-1
6.664970833E-1,-1.904518604E0,6.946220994E-1,2.430925071E-1
6.764630833E-1,-1.700112224E0,5.456480384E-1,-5.174251273E-3
6.864280833E-1,-1.498174310E0,4.626292884E-1,-9.889674932E-2
6.963930833E-1,-1.315294504E0,4.381799698E-1,-9.685177356E-2
7.063590833E-1,-1.175297499E0,5.790678263E-1,-3.927024081E-2
7.163240833E-1,-1.023534656E0,7.960841656E-1,7.600446790E-2
7.262890833E-1,-8.883981109E-1,9.048713446E-1,1.459321678E-1
7.362550833E-1,-7.835373878E-1,7.883312106E-1,1.489231288E-1
7.462200833E-1,-6.788501143E-1,4.280246794E-1,1.392409354E-1
7.561860833E-1,-5.558268428E-1,-4.120604321E-2,9.487156570E-2
7.661510833E-1,-4.131791890E-1,-7.196050882E-1,2.346156538E-2
7.761160833E-1,-3.121110797E-1,-1.441050291E0,-7.964055240E-2
7.860820833E-1,-3.136272132E-1,-2.186511993E0,-2.410928309E-1
7.960470833E-1,-4.349955320E-1,-2.821124315E0,-4.792254567E-1
8.060120833E-1,-5.809319615E-1,-3.131641150E0,-6.922554374E-1
8.159780833E-1,-7.171005607E-1,-3.204716206E0,-8.460569978E-1
8.259430833E-1,-8.583766818E-1,-3.193650246E0,-9.297223091E-1
8.359090833E-1,-1.009216547E0,-3.148593187E0,-9.508614540E-1
8.458740833E-1,-1.145378113E0,-3.036796808E0,-9.350970984E-1
8.558390833E-1,-1.250249982E0,-2.851140976E0,-8.932855725E-1
8.658050833E-1,-1.362692356E0,-2.517316580E0,-8.214718103E-1
8.757700833E-1,-1.553086758E0,-2.017690182E0,-7.241963148E-1
8.857350833E-1,-1.826975346E0,-1.498741627E0,-6.375823617E-1
8.957010833E-1,-2.125084400E0,-1.062448859E0,-5.885130763E-1
9.056660833E-1,-2.349426746E0,-7.142782211E-1,-5.569348931E-1
9.156320833E-1,-2.308823347E0,-3.218379617E-1,-5.225540996E-1
9.255970833E-1,-1.942547202E0,-3.366185725E-2,-5.487060547E-1
9.355620833E-1,-1.377297521E0,-7.333093882E-2,-6.104772091E-1
9.455280833E-1,-7.337981462E-1,-4.117372334E-1,-7.041558027E-1
9.554930833E-1,-9.232085943E-2,-8.261238933E-1,-8.057045341E-1
9.654580833E-1,4.122698605E-1,-1.210518599E0,-8.882713318E-1
9.754240833E-1,7.124258280E-1,-1.637343407E0,-8.710134625E-1
9.853890833E-1,9.155829549E-1,-1.670865059E0,-7.343602777E-1
9.953550833E-1,9.088105559E-1,-1.569339633E0,-4.296437502E-1
1.005320083E0,5.591233969E-1,-1.588366866E0,-1.871797442E-1
1.015285083E0,1.268843561E-1,-1.186578870E0,7.246959023E-3
1.025251083E0,-1.513001323E-1,-5.512306094E-1,2.939096093E-1
1.035216083E0,-3.092395961E-1,3.563297540E-2,6.146742702E-1
1.045181083E0,-4.585603774E-1,3.129311800E-1,8.659200668E-1
1.055147083E0,-6.094816327E-1,3.709030151E-1,1.005903125E0
1.065112167E0,-7.401317358E-1,3.754434288E-1,1.042489886E0
1.075078167E0,-8.786262274E-1,3.661707342E-1,9.835450053E-1
1.085043167E0,-1.006791115E0,3.638103902E-1,8.300135136E-1
1.095008167E0,-1.062549591E0,3.456276953E-1,6.841217875E-1
1.104974167E0,-9.848179817E-1,3.090587854E-1,5.720711350E-1
1.114939167E0,-8.183124661E-1,2.839884758E-1,4.651255608E-1
1.124904167E0,-6.618634462E-1,1.823087335E-1,3.158985376E-1
1.134870167E0,-6.322163939E-1,-2.754081786E-2,2.553015053E-1
1.144835167E0,-7.122886181E-1,-2.015786618E-1,2.870184183E-1
1.154801167E0,-8.788007498E-1,-1.053877100E-1,2.958191335E-1
1.164766167E0,-1.096734881E0,2.094061822E-1,2.860117853E-1
1.174731167E0,-1.310065269E0,6.303737164E-1,3.196732998E-1
1.184697167E0,-1.500482559E0,8.365934491E-1,4.128831327E-1
1.194662167E0,-1.625898957E0,8.830539584E-1,5.857210755E-1
1.204628167E0,-1.660969019E0,9.301101565E-1,9.258916974E-1
1.214593167E0,-1.657078743E0,1.086299896E0,1.428676844E0
1.224558167E0,-1.658855319E0,1.318520546E0,1.937421560E0
1.234524167E0,-1.732878685E0,1.317628980E0,2.361562014E0
1.244489167E0,-1.910979390E0,9.716276526E-1,2.590373993E0
1.254454167E0,-2.079135656E0,3.188129067E-1,2.446464300E0
1.264420167E0,-2.081907511E0,-2.360979766E-1,1.851772547E0
1.274385167E0,-1.692883492E0,-6.918339133E-1,1.030059576E0
1.284351167E0,-1.112433434E0,-6.387997270E-1,2.549297512E-1
1.294316167E0,-4.793782532E-1,-3.735358715E-1,-1.596727818E-1
1.304281167E0,-8.812819421E-2,-2.371245027E-1,-1.581590325E-1
1.314247167E0,-1.096841395E-1,-2.041356266E-1,4.325535521E-2
1.324212167E0,-4.288299084E-1,3.524553776E-2,3.086001873E-1
1.334177167E0,-7.400387526E-1,4.149796665E-1,5.459722281E-1
1.344143167E0,-9.765458107E-1,7.030407786E-1,6.501729488E-1
1.354108167E0,-1.145396948E0,8.884593248E-1,5.836328268E-1
1.364074167E0,-1.256354094E0,9.222641587E-1,4.311737418E-1
1.374039167E0,-1.280305147E0,7.687050104E-1,2.407124639E-1
1.384004167E0,-1.180282712E0,6.330581903E-1,9.281487763E-2
1.393970167E0,-1.065871358E0,2.736240923E-1,9.085424244E-3
1.403935167E0,-9.857833982E-1,-1.528779566E-1,-1.603864282E-1
1.413900167E0,-8.910053372E-1,-3.348081708E-1,-3.846065700E-1
1.423866167E0,-8.544536829E-1,-1.329024732E-1,-5.715532899E-1
1.433831167E0,-8.932043910E-1,3.766886294E-1,-6.487407684E-1
1.443797167E0,-8.718239665E-1,8.654071689E-1,-6.328086853E-1
1.453762167E0,-7.865954638E-1,1.149080634E0,-5.972068906E-1
1.463727167E0,-6.509249806E-1,1.196549654E0,-5.840857625E-1
1.473693167E0,-5.998905897E-1,9.148644805E-1,-6.033369899E-1
1.483658167E0,-6.361935139E-1,4.149580300E-1,-6.044672728E-1
1.493623167E0,-6.308037043E-1,3.635384440E-1,-6.077458858E-1
1.503589167E0,-4.224731624E-1,6.841507554E-1,-5.269751549E-1
1.513554167E0,-1.561326534E-1,6.370825171E-1,-2.606574297E-1
1.523520167E0,-6.964357942E-2,6.212007403E-1,8.362110704E-2
1.533485167E0,-2.074488401E-1,6.252519488E-1,4.633234441E-1
1.543450167E0,-4.920606017E-1,6.166132092E-1,7.458507419E-1
1.553416167E0,2.123847455E-1,-4.189548790E-1,6.480980515E-1
1.563381167E0,-2.010819316E-1,-1.239860803E-1,6.767470241E-1
1.573346167E0,-4.373307228E-1,-4.541147649E-1,6.571291089E-1
1.583312167E0,-2.757245302E-1,-1.417555511E-1,5.405380726E-1
1.593277167E0,-5.367940068E-1,-5.628859624E-3,5.668160319E-1
1.603243167E0,-5.423563123E-1,-1.120926812E-3,4.637455046E-1
1.613208167E0,-5.258073807E-1,-3.030216098E-1,3.814485371E-1
1.623173167E0,-4.130648673E-1,-4.161279202E-1,3.889679909E-1
1.633139167E0,-3.931977749E-1,-1.666024327E-1,3.974594176E-1
1.643104167E0,-3.173032701E-1,-2.339660376E-1,3.480604291E-1
1.653069167E0,-1.833280772E-1,-2.414465845E-1,2.718575299E-1
1.663035167E0,-7.965254784E-2,-1.282523870E-1,2.327474356E-1
1.673000167E0,3.551613912E-2,-1.847467124E-1,1.793651581E-1
1.682966167E0,9.311658889E-2,-2.500399649E-1,5.353798345E-2
1.692931167E0,1.431286335E-1,-2.317465097E-1,-3.486374766E-2
1.702896167E0,2.404109687E-1,-2.332461327E-1,-8.153004944E-2
1.712862167E0,4.560993314E-1,-2.383700460E-1,-1.273630559E-1
1.722827167E0,7.735662460E-1,-2.525942624E-1,-1.143143624E-1
1.732792167E0,1.020564914E0,-3.346658647E-1,-6.053183228E-2
1.742758167E0,1.264670014E0,-5.494418144E-1,1.211399585E-1
1.752723167E0,1.245677114E0,-3.337717950E-1,3.287461996E-1
1.762689167E0,1.186812997E0,-2.616520524E-1,4.716154635E-1
1.772654167E0,1.048520565E0,-2.258330584E-1,3.878358603E-1
1.782619167E0,9.290761948E-1,-1.304868460E-1,2.778510451E-1
1.792585167E0,9.132815003E-1,-5.095574260E-2,5.459740758E-2
1.802550167E0,1.115071535E0,-2.400109172E-2,-1.176254898E-1
1.812515167E0,1.575621724E0,-1.129658148E-2,-2.098805755E-1
1.822481167E0,2.201281071E0,-5.166877061E-2,-2.206144482E-1
1.832446167E0,2.836574793E0,-1.145743653E-1,-1.544322670E-1
1.842412167E0,3.278381586E0,-2.943648994E-1,-7.991621643E-2
1.852377167E0,3.455842257E0,-6.931126714E-1,-1.301143616E-1
1.862342167E0,1.559241533E0,-2.851172686E0,-5.465254188E-1
1.872308167E0,9.241356850E-1,-3.025932312E0,-8.914715648E-1
1.882273167E0,2.437730879E-1,-1.079153657E0,-7.987722158E-1
1.892238167E0,-6.732686162E-1,1.206375599E0,-7.079381943E-1
1.902204167E0,5.956383944E-1,-1.806689143E0,-4.308802783E-1
1.912169167E0,-8.588410616E-1,-1.268003702E0,-1.805596501E-1
1.922135167E0,2.865158617E-1,7.814041972E-1,2.117950767E-1
1.932100167E0,4.887197539E-2,-7.815466523E-1,2.356447577E-1
1.942065167E0,4.343453944E-1,1.832052916E-1,2.101055682E-1
1.952031167E0,3.774240613E-1,-2.030009329E-1,9.991143644E-2
1.961996167E0,5.645241737E-1,7.408633083E-2,8.961565793E-2
1.971961167E0,6.793582439E-1,1.660162508E-1,1.827961579E-2
1.981927167E0,8.776971102E-1,9.216021895E-1,1.311497092E-1
1.991892167E0,1.031368017E0,1.091135740E0,1.679026484E-1
2.001858167E0,1.273885608E0,1.369794250E0,1.801369488E-1
2.011823167E0,1.426457167E0,1.567257643E0,1.622783840E-1
2.021788167E0,1.436335683E0,1.344321012E0,1.136977971E-1
2.031754167E0,8.829378486E-1,1.063570976E0,1.909938641E-2
2.041719167E0,3.847701252E-1,4.463697374E-1,-8.455643803E-2
2.051684167E0,3.780337051E-2,4.038513824E-2,-7.820454985E-2
2.061649917E0,-2.232639194E-1,-2.682214379E-1,-2.748624422E-2
2.071614917E0,-4.298772514E-1,-5.348495245E-1,1.973131299E-2
2.081580917E0,-6.086680293E-1,-7.636222839E-1,1.923223585E-2
2.091545917E0,-7.326595783E-1,-8.975790739E-1,-1.698784530E-2
2.101510917E0,-1.322409064E-1,-1.950747222E-1,-3.952351585E-2
2.111476917E0,3.074932396E-1,4.385180175E-1,-9.120180458E-2
2.121441917E0,3.596585989E-2,3.811572492E-2,-3.062527254E-2
2.131407917E0,-3.547034785E-2,-6.628571451E-2,8.157218806E-3
2.141372917E0,3.045807034E-2,2.803998441E-2,9.641836584E-2
2.151337917E0,6.717358483E-4,-1.240472309E-2,1.255682558E-1
2.161303917E0,4.503758624E-3,2.661843784E-3,5.378089473E-2
2.171268917E0,6.067149341E-3,-1.449177973E-3,-6.004901230E-2
2.181233917E0,9.433384985E-3,-2.580754925E-3,-2.669449449E-1
2.191199917E0,4.196791351E-2,6.010165066E-2,-4.641994238E-1
2.201164917E0,4.116736725E-2,8.904861659E-2,-6.353605390E-1
2.211130917E0,1.461504027E-2,4.108664766E-2,-7.371329665E-1
2.221095917E0,-4.594124854E-2,-4.564078897E-2,-7.958269119E-1
2.231060917E0,-8.746024221E-2,-9.488127381E-2,-8.041177988E-1
2.241026917E0,-7.423995528E-3,6.565434486E-2,-8.064078689E-1
2.250991917E0,2.719209064E-3,5.112425238E-2,-7.518809438E-1
2.260956917E0,2.494914830E-2,5.492351577E-2,-6.975159645E-1
2.270922917E0,1.853534207E-2,3.233341873E-2,-7.004763484E-1
2.280887917E0,2.584603848E-3,1.479100436E-3,-6.265975833E-1
2.290853917E0,1.097215991E-2,2.936625853E-2,-4.499073029E-1
2.300818917E0,1.756801084E-2,3.769050166E-2,-2.582233548E-1
2.310783917E0,1.785773970E-2,3.824458644E-2,1.441885158E-2
2.320749917E0,5.304635316E-2,8.123200387E-2,9.106910788E-3
2.330714917E0,1.950600557E-2,2.524043806E-2,7.182262838E-3
2.340679917E0,3.728373675E-3,4.921851680E-3,1.164199319E-2
2.350645917E0,4.068587441E-3,-1.008688007E-3,1.157944463E-2
2.360610917E0,3.441146808E-3,-3.969594836E-4,7.697355468E-3
2.370575917E0,5.803461652E-3,3.226469271E-3,5.712409038E-3
2.380541917E0,1.337340800E-3,1.229897141E-3,8.481297642E-3
2.390506917E0,-6.218069466E-4,-6.046125665E-3,8.400408551E-3
2.400472917E0,-7.826618385E-4,-8.208612911E-3,8.270446211E-3
2.410437917E0,-3.326872597E-3,-1.381401904E-2,7.138587069E-3
2.420402917E0,-3.569486551E-3,-1.672032662E-2,9.624382481E-3
2.430368917E0,-1.687476784E-2,-2.490879595E-2,1.243291888E-2
2.440333917E0,-1.901222020E-2,-2.690137550E-2,1.368567068E-2
2.450298917E0,1.407600567E-2,1.350199431E-2,6.055244710E-3
2.460264917E0,9.083110839E-3,1.639738306E-2,-5.181337893E-2
2.470229917E0,1.166284010E-1,1.932639480E-1,-3.728561997E-1
2.480195917E0,1.333597004E-1,2.040601373E-1,-3.775689304E-1
2.490160917E0,9.160469472E-2,1.406567842E-1,-4.227331579E-1
2.500125917E0,8.889732510E-2,1.410812885E-1,-4.897569418E-1
2.510091917E0,3.800998256E-2,6.095591187E-2,-4.842301309E-1
2.520056917E0,-7.745787036E-3,-1.189379394E-2,-4.529723525E-1
2.530021917E0,-1.922641546E-1,-2.720120847E-1,-5.513324738E-1
2.539987917E0,-3.180532455E-1,-4.373094141E-1,-6.496992707E-1
2.549952917E0,4.925637972E-3,1.950134337E-2,-3.431350291E-1
2.559918917E0,1.040650085E-1,1.751306206E-1,-3.137012422E-1
2.569883917E0,-2.815174870E-2,-4.999496043E-2,1.890332438E-2
2.579848917E0,-2.767451108E-2,-5.319847539E-2,9.828601964E-3
2.589814917E0,5.070536863E-3,4.434892908E-3,1.024060138E-2
2.599779917E0,4.198587267E-4,7.743603550E-3,1.089254301E-2
2.609744917E0,-7.886354811E-3,-1.046952140E-2,1.350113563E-2
2.619710917E0,3.419452161E-2,4.638843611E-2,6.411800627E-3
2.629675917E0,2.794346586E-2,4.164637625E-2,7.737552281E-3
2.639641917E0,-6.082942709E-3,-1.370449550E-2,1.064013224E-2
2.649606917E0,-6.050499622E-3,-6.726497784E-3,1.381429285E-2
2.659571917E0,1.970279962E-2,3.049543872E-2,1.957124844E-2
2.669537917E0,1.148442551E-2,7.770689204E-3,1.211181097E-2
2.679502917E0,-1.323050819E-2,-2.404929325E-2,1.582931727E-2
2.689467917E0,1.165671507E-3,-2.583818045E-3,9.630768560E-3
2.699433917E0,1.667272672E-2,1.946768910E-2,1.007578243E-2
2.709398917E0,-2.518313937E-3,-4.558619112E-3,5.214163568E-3
2.719364917E0,-1.226974465E-2,-1.715616882E-2,6.852007937E-3
2.729329917E0,-2.156923059E-3,-3.478973173E-3,9.601988830E-3
2.739294917E0,1.176155545E-2,9.519382380E-3,1.360764913E-2
2.749260917E0,-1.744688605E-3,-5.290039349E-3,1.315173879E-2
2.759225917E0,-2.580921166E-3,-8.526046760E-3,1.003211178E-2
2.769190917E0,5.750223063E-3,3.083623946E-3,1.177810598E-2
2.779156917E0,1.495024189E-3,2.207444049E-3,1.082416158E-2
2.789121917E0,-2.125138883E-3,-4.220946692E-3,1.070268545E-2
2.799087917E0,5.558655248E-4,-1.689079683E-3,1.702343300E-2
2.809052917E0,4.616467748E-3,9.477854706E-3,1.265395805E-2
2.819017917E0,3.806068096E-3,-2.912235912E-3,1.457409747E-2
2.828983917E0,4.237929359E-3,-4.247160628E-3,9.344232269E-3
2.838948917E0,8.416961879E-3,5.906674080E-3,1.502688602E-2
2.848913917E0,2.677246928E-3,-3.502918407E-4,9.493331425E-3
2.858879917E0,1.156315440E-3,-8.214050904E-4,7.887711748E-3
2.868844917E0,-3.627312370E-3,1.056207344E-3,1.026245579E-2
2.878810917E0,1.941890223E-3,4.412855953E-3,1.630064100E-2
2.888775917E0,1.339113805E-3,3.519218415E-3,1.379306428E-2
2.898740917E0,3.324766643E-3,4.085939378E-3,1.105480269E-2
2.908706917E0,2.961348277E-3,4.464787431E-3,1.020466536E-2
2.918671917E0,3.958968446E-3,-2.416820731E-3,5.984620657E-3
2.928636917E0,1.229284680E-4,5.746983923E-3,1.137967594E-2
2.938602917E0,5.150443874E-3,1.829474233E-3,1.089444850E-2
2.948567917E0,-1.379822847E-3,5.579073913E-3,1.133471262E-2
2.958533917E0,1.283870894E-3,5.283995531E-3,1.264685206E-2
2.968498917E0,3.197859973E-3,3.555701114E-3,6.832816172E-3
2.978463917E0,3.614378162E-3,4.101915285E-3,1.287392993E-2
2.988429917E0,6.574475556E-4,3.053045832E-3,9.745003656E-3
2.998394917E0,-3.661666997E-3,4.482364282E-3,1.032477431E-2
3.008360917E0,3.863662248E-3,9.098753333E-3,1.071015280E-2
3.018325917E0,3.884701291E-3,7.187670097E-3,1.256824005E-2
3.028290917E0,2.329403069E-3,5.984503776E-3,1.025018375E-2
3.038256917E0,1.478256774E-3,4.284874536E-3,9.055489674E-3
3.048221917E0,4.604102112E-3,4.575407133E-3,9.824624285E-3
3.058186917E0,-9.904007893E-4,4.936475307E-5,6.006716285E-3
3.068153208E0,5.716538988E-3,8.533197455E-3,9.497871622E-3
3.078118208E0,1.710878569E-3,7.381380536E-3,4.423484672E-3
3.088084208E0,-5.852822680E-3,-2.996874042E-3,9.317580611E-3
3.098049208E0,2.890784144E-1,4.278014004E-1,3.449838143E-3
3.108014208E0,5.010972023E-1,7.399947643E-1,-1.354238391E-2
3.117980208E0,4.405611455E-1,7.422637939E-1,-1.602098718E-2
3.127945208E0,9.714385867E-2,2.336717099E-1,1.702082693E-3
3.137910208E0,-2.358452976E-1,-5.124565959E-1,2.409260906E-2
3.147876208E0,-2.130345553E-1,-3.516559899E-1,1.595604606E-2
3.157841208E0,-6.644371897E-3,-2.292575873E-2,7.013152353E-3
3.167807208E0,1.044628620E-1,1.560276449E-1,1.096342877E-2
3.177772208E0,8.521415293E-3,9.253384545E-3,1.465803199E-2
3.187737208E0,-1.646997780E-1,-2.583578229E-1,2.106206678E-2
3.197703208E0,-2.523097694E-1,-3.775550425E-1,2.336090803E-2
3.207668208E0,-2.495934963E-1,-3.613705933E-1,2.689155564E-2
3.217633208E0,-1.596577615E-1,-2.288106978E-1,1.125390828E-1
3.227599208E0,-2.110031247E-2,-2.357696742E-2,6.076542735E-1
3.237564208E0,8.076879382E-2,9.917611629E-2,8.766117096E-1
3.247530208E0,-4.517839104E-2,-8.029672503E-2,6.587126255E-1
3.257495208E0,-9.341809154E-2,-1.424141526E-1,2.388035059E-1
3.267460208E0,3.294425830E-2,5.226974562E-2,3.437900171E-2
3.277426208E0,1.040360108E-1,1.501526386E-1,1.786127687E-2
3.287391208E0,5.379157513E-2,7.885660231E-2,1.509586722E-2
3.297356208E0,1.050402317E-2,1.210872550E-2,1.700481959E-2
